NAME	Galtronics_Left_LTE-L_1960.0MHz_P1.txt
MAKE	GALTRONICS
FREQUENCY	1960
H_WIDTH	107
V_WIDTH	36
FRONT_TO_BACK	0
GAIN	  3.43 dBi
TILT	fixed
POLARIZATION	linear
COMMENT	Peak Gain found at (Theta,Phi) = (90,0) deg
HORIZONTAL	360
0	2.968
1	2.982
2	2.996
3	3.010
4	3.023
5	3.035
6	3.045
7	3.053
8	3.060
9	3.065
10	3.068
11	3.068
12	3.066
13	3.060
14	3.049
15	3.034
16	3.013
17	2.988
18	2.958
19	2.922
20	2.884
21	2.844
22	2.803
23	2.762
24	2.724
25	2.690
26	2.660
27	2.635
28	2.615
29	2.602
30	2.594
31	2.591
32	2.593
33	2.600
34	2.609
35	2.622
36	2.638
37	2.658
38	2.681
39	2.710
40	2.743
41	2.784
42	2.833
43	2.890
44	2.957
45	3.033
46	3.119
47	3.214
48	3.319
49	3.430
50	3.548
51	3.671
52	3.798
53	3.928
54	4.060
55	4.194
56	4.329
57	4.466
58	4.605
59	4.748
60	4.893
61	5.041
62	5.193
63	5.348
64	5.506
65	5.665
66	5.826
67	5.985
68	6.142
69	6.297
70	6.447
71	6.593
72	6.733
73	6.869
74	7.002
75	7.132
76	7.261
77	7.389
78	7.518
79	7.647
80	7.778
81	7.909
82	8.041
83	8.171
84	8.297
85	8.419
86	8.535
87	8.645
88	8.748
89	8.845
90	8.935
91	9.020
92	9.103
93	9.183
94	9.262
95	9.342
96	9.423
97	9.505
98	9.588
99	9.671
100	9.755
101	9.838
102	9.918
103	9.997
104	10.075
105	10.151
106	10.227
107	10.303
108	10.382
109	10.463
110	10.548
111	10.637
112	10.730
113	10.827
114	10.927
115	11.028
116	11.130
117	11.231
118	11.330
119	11.427
120	11.520
121	11.611
122	11.700
123	11.786
124	11.871
125	11.956
126	12.039
127	12.120
128	12.199
129	12.274
130	12.342
131	12.402
132	12.453
133	12.490
134	12.514
135	12.522
136	12.515
137	12.492
138	12.453
139	12.399
140	12.330
141	12.246
142	12.147
143	12.032
144	11.903
145	11.759
146	11.600
147	11.426
148	11.239
149	11.039
150	10.828
151	10.608
152	10.381
153	10.148
154	9.912
155	9.674
156	9.437
157	9.201
158	8.968
159	8.739
160	8.516
161	8.300
162	8.092
163	7.892
164	7.703
165	7.525
166	7.360
167	7.206
168	7.066
169	6.939
170	6.827
171	6.728
172	6.643
173	6.572
174	6.513
175	6.468
176	6.435
177	6.414
178	6.405
179	6.408
180	6.421
181	6.447
182	6.482
183	6.526
184	6.579
185	6.639
186	6.705
187	6.775
188	6.848
189	6.920
190	6.991
191	7.056
192	7.116
193	7.168
194	7.211
195	7.242
196	7.262
197	7.269
198	7.262
199	7.241
200	7.206
201	7.156
202	7.092
203	7.014
204	6.922
205	6.819
206	6.705
207	6.585
208	6.458
209	6.329
210	6.199
211	6.070
212	5.945
213	5.825
214	5.711
215	5.604
216	5.505
217	5.414
218	5.330
219	5.255
220	5.188
221	5.129
222	5.079
223	5.037
224	5.004
225	4.981
226	4.965
227	4.959
228	4.961
229	4.970
230	4.986
231	5.007
232	5.033
233	5.062
234	5.093
235	5.126
236	5.160
237	5.193
238	5.226
239	5.257
240	5.287
241	5.317
242	5.343
243	5.367
244	5.389
245	5.406
246	5.418
247	5.425
248	5.426
249	5.419
250	5.406
251	5.385
252	5.358
253	5.325
254	5.287
255	5.244
256	5.196
257	5.147
258	5.096
259	5.042
260	4.986
261	4.928
262	4.868
263	4.804
264	4.737
265	4.667
266	4.593
267	4.516
268	4.436
269	4.352
270	4.267
271	4.179
272	4.090
273	3.999
274	3.908
275	3.817
276	3.726
277	3.634
278	3.542
279	3.450
280	3.359
281	3.267
282	3.176
283	3.085
284	2.995
285	2.907
286	2.820
287	2.736
288	2.655
289	2.576
290	2.500
291	2.428
292	2.357
293	2.290
294	2.224
295	2.162
296	2.101
297	2.041
298	1.983
299	1.927
300	1.873
301	1.822
302	1.774
303	1.729
304	1.689
305	1.654
306	1.625
307	1.600
308	1.582
309	1.569
310	1.561
311	1.558
312	1.560
313	1.565
314	1.574
315	1.586
316	1.600
317	1.617
318	1.638
319	1.661
320	1.688
321	1.720
322	1.755
323	1.795
324	1.840
325	1.889
326	1.942
327	1.999
328	2.058
329	2.119
330	2.182
331	2.245
332	2.307
333	2.368
334	2.428
335	2.487
336	2.543
337	2.598
338	2.650
339	2.700
340	2.747
341	2.790
342	2.827
343	2.861
344	2.888
345	2.909
346	2.923
347	2.933
348	2.936
349	2.936
350	2.933
351	2.929
352	2.923
353	2.920
354	2.918
355	2.920
356	2.925
357	2.932
358	2.942
359	2.954
VERTICAL	360
0	2.968
1	2.873
2	2.780
3	2.691
4	2.603
5	2.520
6	2.444
7	2.373
8	2.310
9	2.256
10	2.210
11	2.172
12	2.142
13	2.119
14	2.100
15	2.086
16	2.075
17	2.065
18	2.058
19	2.052
20	2.050
21	2.050
22	2.055
23	2.064
24	2.081
25	2.104
26	2.136
27	2.176
28	2.226
29	2.284
30	2.354
31	2.436
32	2.528
33	2.633
34	2.752
35	2.886
36	3.035
37	3.199
38	3.380
39	3.576
40	3.787
41	4.012
42	4.247
43	4.490
44	4.737
45	4.984
46	5.226
47	5.459
48	5.679
49	5.882
50	6.066
51	6.230
52	6.373
53	6.496
54	6.600
55	6.687
56	6.759
57	6.819
58	6.870
59	6.915
60	6.954
61	6.990
62	7.023
63	7.054
64	7.083
65	7.108
66	7.130
67	7.147
68	7.160
69	7.170
70	7.177
71	7.183
72	7.190
73	7.198
74	7.208
75	7.223
76	7.242
77	7.263
78	7.286
79	7.309
80	7.329
81	7.344
82	7.353
83	7.356
84	7.356
85	7.357
86	7.364
87	7.385
88	7.426
89	7.493
90	7.591
91	7.722
92	7.888
93	8.087
94	8.316
95	8.571
96	8.845
97	9.128
98	9.409
99	9.678
100	9.923
101	10.135
102	10.307
103	10.438
104	10.528
105	10.583
106	10.606
107	10.605
108	10.582
109	10.542
110	10.487
111	10.417
112	10.333
113	10.236
114	10.126
115	10.005
116	9.874
117	9.736
118	9.592
119	9.443
120	9.290
121	9.132
122	8.970
123	8.801
124	8.627
125	8.447
126	8.264
127	8.082
128	7.903
129	7.734
130	7.579
131	7.445
132	7.334
133	7.252
134	7.197
135	7.171
136	7.171
137	7.194
138	7.232
139	7.277
140	7.323
141	7.359
142	7.381
143	7.384
144	7.367
145	7.334
146	7.289
147	7.240
148	7.196
149	7.162
150	7.145
151	7.148
152	7.171
153	7.210
154	7.264
155	7.324
156	7.380
157	7.428
158	7.456
159	7.462
160	7.442
161	7.399
162	7.336
163	7.258
164	7.174
165	7.091
166	7.013
167	6.947
168	6.894
169	6.853
170	6.826
171	6.806
172	6.790
173	6.774
174	6.754
175	6.724
176	6.683
177	6.631
178	6.568
179	6.498
180	6.421
181	6.344
182	6.268
183	6.198
184	6.133
185	6.078
186	6.033
187	5.998
188	5.974
189	5.958
190	5.952
191	5.954
192	5.963
193	5.980
194	6.002
195	6.030
196	6.066
197	6.108
198	6.158
199	6.215
200	6.282
201	6.358
202	6.444
203	6.541
204	6.649
205	6.766
206	6.892
207	7.025
208	7.163
209	7.304
210	7.445
211	7.583
212	7.717
213	7.842
214	7.958
215	8.064
216	8.158
217	8.240
218	8.311
219	8.372
220	8.425
221	8.470
222	8.509
223	8.543
224	8.574
225	8.602
226	8.626
227	8.648
228	8.667
229	8.684
230	8.698
231	8.709
232	8.718
233	8.724
234	8.727
235	8.727
236	8.724
237	8.720
238	8.712
239	8.704
240	8.693
241	8.681
242	8.670
243	8.661
244	8.652
245	8.648
246	8.648
247	8.654
248	8.664
249	8.680
250	8.701
251	8.725
252	8.751
253	8.778
254	8.805
255	8.829
256	8.850
257	8.867
258	8.879
259	8.886
260	8.889
261	8.890
262	8.890
263	8.891
264	8.895
265	8.903
266	8.915
267	8.931
268	8.951
269	8.973
270	8.997
271	9.022
272	9.048
273	9.074
274	9.101
275	9.131
276	9.163
277	9.200
278	9.242
279	9.290
280	9.344
281	9.401
282	9.462
283	9.522
284	9.579
285	9.628
286	9.668
287	9.696
288	9.711
289	9.713
290	9.702
291	9.681
292	9.651
293	9.616
294	9.578
295	9.539
296	9.500
297	9.462
298	9.425
299	9.386
300	9.345
301	9.298
302	9.245
303	9.183
304	9.112
305	9.032
306	8.944
307	8.849
308	8.750
309	8.647
310	8.543
311	8.438
312	8.332
313	8.228
314	8.124
315	8.020
316	7.917
317	7.812
318	7.708
319	7.603
320	7.497
321	7.391
322	7.285
323	7.178
324	7.069
325	6.960
326	6.848
327	6.734
328	6.619
329	6.501
330	6.382
331	6.263
332	6.145
333	6.029
334	5.918
335	5.812
336	5.712
337	5.618
338	5.529
339	5.443
340	5.359
341	5.274
342	5.185
343	5.089
344	4.985
345	4.871
346	4.747
347	4.614
348	4.474
349	4.328
350	4.181
351	4.034
352	3.891
353	3.753
354	3.622
355	3.498
356	3.381
357	3.270
358	3.165
359	3.066
