NAME	Galtronics_Right_LTE-L_1960.0MHz_P1.txt
MAKE	GALTRONICS
FREQUENCY	1960
H_WIDTH	110
V_WIDTH	86
FRONT_TO_BACK	0
GAIN	  3.31 dBi
TILT	fixed
POLARIZATION	linear
COMMENT	Peak Gain found at (Theta,Phi) = (90,0) deg
HORIZONTAL	360
0	1.643
1	1.580
2	1.522
3	1.471
4	1.423
5	1.380
6	1.338
7	1.297
8	1.253
9	1.206
10	1.154
11	1.096
12	1.033
13	0.964
14	0.893
15	0.819
16	0.744
17	0.673
18	0.606
19	0.544
20	0.488
21	0.440
22	0.398
23	0.363
24	0.334
25	0.307
26	0.284
27	0.263
28	0.241
29	0.221
30	0.199
31	0.178
32	0.155
33	0.135
34	0.115
35	0.100
36	0.087
37	0.080
38	0.077
39	0.081
40	0.090
41	0.105
42	0.124
43	0.148
44	0.175
45	0.203
46	0.233
47	0.263
48	0.292
49	0.321
50	0.350
51	0.378
52	0.407
53	0.438
54	0.471
55	0.508
56	0.548
57	0.592
58	0.640
59	0.692
60	0.746
61	0.802
62	0.858
63	0.915
64	0.972
65	1.027
66	1.083
67	1.139
68	1.195
69	1.253
70	1.313
71	1.378
72	1.445
73	1.516
74	1.588
75	1.664
76	1.739
77	1.815
78	1.888
79	1.959
80	2.028
81	2.094
82	2.157
83	2.220
84	2.282
85	2.346
86	2.411
87	2.480
88	2.550
89	2.623
90	2.697
91	2.773
92	2.846
93	2.920
94	2.992
95	3.061
96	3.131
97	3.199
98	3.268
99	3.338
100	3.409
101	3.481
102	3.555
103	3.629
104	3.702
105	3.775
106	3.846
107	3.915
108	3.983
109	4.049
110	4.118
111	4.188
112	4.262
113	4.340
114	4.423
115	4.510
116	4.600
117	4.692
118	4.784
119	4.874
120	4.961
121	5.046
122	5.127
123	5.203
124	5.278
125	5.351
126	5.423
127	5.493
128	5.563
129	5.632
130	5.701
131	5.768
132	5.834
133	5.900
134	5.967
135	6.036
136	6.109
137	6.187
138	6.271
139	6.364
140	6.464
141	6.570
142	6.682
143	6.798
144	6.916
145	7.036
146	7.155
147	7.275
148	7.396
149	7.518
150	7.644
151	7.772
152	7.904
153	8.038
154	8.174
155	8.310
156	8.443
157	8.572
158	8.696
159	8.813
160	8.924
161	9.031
162	9.133
163	9.235
164	9.339
165	9.443
166	9.552
167	9.663
168	9.777
169	9.891
170	10.005
171	10.115
172	10.224
173	10.329
174	10.430
175	10.530
176	10.627
177	10.725
178	10.821
179	10.916
180	11.011
181	11.102
182	11.188
183	11.269
184	11.343
185	11.409
186	11.467
187	11.520
188	11.570
189	11.617
190	11.665
191	11.716
192	11.770
193	11.828
194	11.891
195	11.955
196	12.021
197	12.086
198	12.148
199	12.207
200	12.260
201	12.309
202	12.354
203	12.395
204	12.435
205	12.473
206	12.513
207	12.555
208	12.600
209	12.649
210	12.700
211	12.755
212	12.811
213	12.869
214	12.926
215	12.982
216	13.036
217	13.087
218	13.136
219	13.183
220	13.228
221	13.273
222	13.319
223	13.368
224	13.420
225	13.475
226	13.534
227	13.598
228	13.663
229	13.731
230	13.799
231	13.866
232	13.931
233	13.994
234	14.053
235	14.111
236	14.168
237	14.224
238	14.279
239	14.334
240	14.389
241	14.442
242	14.490
243	14.532
244	14.563
245	14.581
246	14.585
247	14.573
248	14.547
249	14.507
250	14.457
251	14.402
252	14.342
253	14.281
254	14.220
255	14.159
256	14.095
257	14.027
258	13.952
259	13.868
260	13.774
261	13.670
262	13.556
263	13.435
264	13.309
265	13.183
266	13.058
267	12.934
268	12.814
269	12.696
270	12.578
271	12.458
272	12.335
273	12.208
274	12.076
275	11.941
276	11.802
277	11.662
278	11.523
279	11.384
280	11.247
281	11.113
282	10.977
283	10.842
284	10.703
285	10.561
286	10.415
287	10.265
288	10.113
289	9.959
290	9.805
291	9.654
292	9.506
293	9.360
294	9.218
295	9.078
296	8.940
297	8.804
298	8.669
299	8.535
300	8.405
301	8.279
302	8.159
303	8.046
304	7.940
305	7.842
306	7.749
307	7.659
308	7.570
309	7.478
310	7.380
311	7.274
312	7.160
313	7.036
314	6.904
315	6.766
316	6.623
317	6.478
318	6.331
319	6.183
320	6.037
321	5.889
322	5.742
323	5.594
324	5.444
325	5.294
326	5.143
327	4.995
328	4.849
329	4.707
330	4.572
331	4.444
332	4.322
333	4.207
334	4.097
335	3.992
336	3.889
337	3.786
338	3.682
339	3.576
340	3.467
341	3.356
342	3.242
343	3.129
344	3.016
345	2.906
346	2.799
347	2.698
348	2.602
349	2.510
350	2.422
351	2.338
352	2.256
353	2.176
354	2.096
355	2.016
356	1.938
357	1.860
358	1.784
359	1.711
VERTICAL	360
0	1.643
1	1.613
2	1.588
3	1.561
4	1.525
5	1.475
6	1.408
7	1.322
8	1.220
9	1.107
10	0.992
11	0.881
12	0.782
13	0.701
14	0.642
15	0.605
16	0.590
17	0.593
18	0.610
19	0.635
20	0.661
21	0.683
22	0.700
23	0.707
24	0.706
25	0.700
26	0.692
27	0.689
28	0.691
29	0.707
30	0.737
31	0.785
32	0.850
33	0.931
34	1.025
35	1.127
36	1.233
37	1.338
38	1.437
39	1.526
40	1.604
41	1.671
42	1.728
43	1.781
44	1.836
45	1.897
46	1.971
47	2.064
48	2.179
49	2.318
50	2.480
51	2.662
52	2.858
53	3.061
54	3.262
55	3.447
56	3.605
57	3.728
58	3.809
59	3.848
60	3.851
61	3.825
62	3.782
63	3.732
64	3.685
65	3.647
66	3.626
67	3.623
68	3.642
69	3.686
70	3.755
71	3.854
72	3.986
73	4.154
74	4.361
75	4.610
76	4.902
77	5.232
78	5.595
79	5.974
80	6.349
81	6.688
82	6.953
83	7.108
84	7.129
85	7.016
86	6.791
87	6.501
88	6.196
89	5.927
90	5.737
91	5.658
92	5.716
93	5.932
94	6.318
95	6.885
96	7.637
97	8.568
98	9.658
99	10.860
100	12.089
101	13.217
102	14.105
103	14.670
104	14.940
105	15.018
106	15.006
107	14.969
108	14.927
109	14.883
110	14.820
111	14.725
112	14.580
113	14.375
114	14.106
115	13.782
116	13.422
117	13.051
118	12.691
119	12.361
120	12.066
121	11.809
122	11.586
123	11.393
124	11.231
125	11.106
126	11.029
127	11.013
128	11.067
129	11.196
130	11.400
131	11.669
132	11.989
133	12.342
134	12.707
135	13.064
136	13.400
137	13.698
138	13.944
139	14.126
140	14.239
141	14.281
142	14.268
143	14.222
144	14.172
145	14.144
146	14.156
147	14.219
148	14.335
149	14.498
150	14.692
151	14.897
152	15.088
153	15.230
154	15.291
155	15.242
156	15.069
157	14.782
158	14.409
159	13.987
160	13.553
161	13.138
162	12.759
163	12.426
164	12.140
165	11.899
166	11.702
167	11.544
168	11.426
169	11.346
170	11.304
171	11.296
172	11.314
173	11.350
174	11.390
175	11.417
176	11.418
177	11.380
178	11.298
179	11.172
180	11.011
181	10.828
182	10.638
183	10.459
184	10.305
185	10.188
186	10.115
187	10.092
188	10.118
189	10.191
190	10.306
191	10.455
192	10.631
193	10.826
194	11.030
195	11.237
196	11.440
197	11.633
198	11.811
199	11.970
200	12.111
201	12.232
202	12.337
203	12.429
204	12.513
205	12.593
206	12.675
207	12.763
208	12.860
209	12.971
210	13.096
211	13.236
212	13.388
213	13.548
214	13.707
215	13.859
216	13.995
217	14.107
218	14.191
219	14.245
220	14.271
221	14.275
222	14.265
223	14.251
224	14.241
225	14.246
226	14.269
227	14.311
228	14.372
229	14.445
230	14.520
231	14.585
232	14.627
233	14.637
234	14.609
235	14.543
236	14.444
237	14.325
238	14.198
239	14.075
240	13.968
241	13.882
242	13.819
243	13.777
244	13.748
245	13.720
246	13.683
247	13.626
248	13.540
249	13.425
250	13.284
251	13.129
252	12.971
253	12.824
254	12.701
255	12.610
256	12.555
257	12.532
258	12.535
259	12.551
260	12.563
261	12.551
262	12.497
263	12.388
264	12.218
265	11.990
266	11.715
267	11.409
268	11.091
269	10.775
270	10.476
271	10.203
272	9.961
273	9.751
274	9.569
275	9.412
276	9.273
277	9.147
278	9.029
279	8.917
280	8.808
281	8.702
282	8.600
283	8.503
284	8.408
285	8.313
286	8.216
287	8.112
288	7.996
289	7.868
290	7.723
291	7.565
292	7.394
293	7.217
294	7.037
295	6.860
296	6.690
297	6.529
298	6.379
299	6.238
300	6.105
301	5.977
302	5.851
303	5.725
304	5.598
305	5.468
306	5.337
307	5.205
308	5.075
309	4.945
310	4.815
311	4.686
312	4.555
313	4.423
314	4.290
315	4.157
316	4.023
317	3.890
318	3.762
319	3.640
320	3.526
321	3.421
322	3.325
323	3.238
324	3.158
325	3.085
326	3.015
327	2.949
328	2.887
329	2.829
330	2.778
331	2.735
332	2.700
333	2.677
334	2.661
335	2.653
336	2.651
337	2.650
338	2.650
339	2.645
340	2.637
341	2.624
342	2.607
343	2.587
344	2.565
345	2.543
346	2.519
347	2.493
348	2.463
349	2.423
350	2.374
351	2.312
352	2.237
353	2.153
354	2.061
355	1.969
356	1.881
357	1.802
358	1.735
359	1.683
